"Time (s)","X (rad/s)","Y (rad/s)","Z (rad/s)"
1.107629202E-2,3.278542459E-1,-1.453685760E-1,9.040840864E-1
3.099329164E-2,3.312861025E-1,-1.666405648E-1,9.084037542E-1
5.091029173E-2,3.177198470E-1,-1.668691486E-1,8.915303946E-1
7.082729181E-2,2.954380512E-1,-1.507786214E-1,8.507151604E-1
9.074429190E-2,2.911391556E-1,-1.274113804E-1,7.846330404E-1
1.106612920E-1,2.834601104E-1,-9.478979558E-2,6.927394867E-1
1.305782916E-1,2.745509744E-1,-6.141202897E-2,5.826784372E-1
1.504952917E-1,2.644697428E-1,-2.912382782E-2,4.654553533E-1
1.704122918E-1,2.463051677E-1,-3.822788596E-3,3.642153442E-1
1.903292919E-1,2.232063562E-1,1.458309963E-2,2.971604764E-1
2.102462919E-1,1.964199245E-1,2.144999802E-2,2.596625686E-1
2.301622918E-1,1.593825370E-1,1.893918961E-2,2.414633036E-1
2.500792919E-1,1.122164130E-1,1.313738804E-2,2.087222040E-1
2.699962920E-1,6.976487488E-2,2.190088853E-4,1.661601514E-1
2.899132920E-1,1.964499801E-2,-2.595124766E-2,1.225066781E-1
3.098302917E-1,-3.229285777E-2,-5.606197566E-2,8.589398116E-2
3.297472917E-1,-7.422932237E-2,-7.775934786E-2,5.660300702E-2
3.496642918E-1,-1.157318428E-1,-9.543289244E-2,2.654223330E-2
3.695812919E-1,-1.597486138E-1,-1.085099503E-1,-8.751622401E-3
3.894982920E-1,-1.860938668E-1,-1.041807458E-1,-4.398517311E-2
4.094152916E-1,-1.921546310E-1,-8.540080488E-2,-5.792171508E-2
4.293322917E-1,-2.162897140E-1,-7.046798617E-2,-5.019686744E-2
4.492492918E-1,-2.473176569E-1,-6.488483399E-2,-4.652381688E-2
4.691652916E-1,-2.783680558E-1,-8.813335001E-2,-5.845030770E-2
4.890822917E-1,-3.123149276E-1,-1.390554309E-1,-9.067892283E-2
5.089992918E-1,-3.459787369E-1,-2.004085779E-1,-1.521940529E-1
5.289162919E-1,-3.459488451E-1,-2.990215421E-1,-2.405481040E-1
5.488332920E-1,-3.373167813E-1,-3.746536672E-1,-3.492914140E-1
5.687502916E-1,-2.670134306E-1,-3.719428480E-1,-4.187989235E-1
5.886672917E-1,-1.643814445E-1,-2.424371094E-1,-4.317406714E-1
6.085842918E-1,-5.250541866E-2,-9.168010950E-2,-4.135088623E-1
6.285012919E-1,1.069698948E-3,2.244015783E-2,-3.868873417E-1
6.484182919E-1,-1.763868518E-2,2.988999709E-2,-3.390854001E-1
6.683352920E-1,-1.791778766E-2,-8.507619798E-2,-2.928947508E-1
6.882522916E-1,2.298538387E-2,-2.334030718E-1,-2.450873107E-1
7.081692917E-1,1.186820865E-1,-3.267222941E-1,-2.104718238E-1
7.280855416E-1,2.054805309E-1,-3.296960592E-1,-1.868097335E-1
7.480025417E-1,2.420599759E-1,-2.524091005E-1,-1.531738937E-1
7.679195418E-1,2.431743294E-1,-1.592890769E-1,-9.405828267E-2
7.878365419E-1,2.001640797E-1,-4.508929700E-2,-1.664438471E-2
8.077535420E-1,1.350995600E-1,8.004242182E-2,7.014696300E-2
8.276705421E-1,1.173839197E-1,1.661948562E-1,1.503046006E-1
8.475875417E-1,1.550815701E-1,2.195545435E-1,2.301742136E-1
8.675045418E-1,1.820141971E-1,2.894884348E-1,3.124680817E-1
8.874215418E-1,1.869257540E-1,3.743803501E-1,4.017818868E-1
9.073385419E-1,2.042420059E-1,4.838203788E-1,4.715416431E-1
9.272555420E-1,2.559730709E-1,5.853753686E-1,5.053994060E-1
9.471725416E-1,3.480751812E-1,6.801655889E-1,5.152990818E-1
9.670885419E-1,3.636868596E-1,7.286167145E-1,5.004397035E-1
9.870055420E-1,2.917090356E-1,7.560045719E-1,4.488323927E-1
1.006922542E0,2.514661252E-1,7.300540805E-1,3.702817559E-1
1.026839542E0,2.592535317E-1,6.282628775E-1,3.016020954E-1
1.046756542E0,2.855820656E-1,5.062940121E-1,2.566167414E-1
1.066673542E0,3.248923421E-1,3.656051159E-1,2.441557348E-1
1.086590542E0,3.413557708E-1,2.230280340E-1,2.505763769E-1
1.106507542E0,3.284100592E-1,1.047892720E-1,2.480334938E-1
1.126424542E0,3.067216873E-1,1.412346121E-2,2.480663955E-1
1.146341542E0,3.108053505E-1,-1.737084985E-2,2.779779136E-1
1.166258542E0,3.034084141E-1,5.244131200E-3,3.428599834E-1
1.186175542E0,2.657218575E-1,1.280564070E-2,4.368638098E-1
1.206091542E0,2.174840719E-1,-5.497115664E-3,5.467967391E-1
1.226008542E0,1.348532885E-1,-4.241588339E-2,6.103196740E-1
1.245925542E0,-3.688461334E-2,-1.073537245E-1,5.840279460E-1
1.265842542E0,-2.104220837E-1,-1.484967768E-1,4.720385373E-1
1.285759542E0,-2.755314112E-1,-1.609234512E-1,3.254449964E-1
1.305676542E0,-2.030061632E-1,-1.398815066E-1,2.156779468E-1
1.325593542E0,-1.262087971E-1,-1.143714264E-1,1.205764860E-1
1.345510542E0,-1.267516464E-1,-1.378249563E-2,4.397882521E-2
1.365427542E0,-1.360090226E-1,1.587065309E-1,1.426251233E-2
1.385344542E0,-9.129207581E-2,3.325923383E-1,2.972756885E-2
1.405261542E0,-7.464130223E-2,4.235154688E-1,3.803920001E-2
1.425178542E0,-1.105910540E-1,4.520716369E-1,7.070579380E-2
1.445094542E0,-1.447397768E-1,4.120058119E-1,1.247164756E-1
1.465011542E0,-1.755529344E-1,3.362369537E-1,1.868292689E-1
1.484928542E0,-1.827871203E-1,2.547464371E-1,2.350250334E-1
1.504845542E0,-1.301056743E-1,2.068879604E-1,2.762967348E-1
1.524762542E0,-5.549651012E-2,1.957277060E-1,2.988970280E-1
1.544679542E0,-2.930755168E-2,2.179988474E-1,3.047684431E-1
1.564596542E0,-2.538620308E-2,2.453321368E-1,2.787204683E-1
1.584513542E0,1.697718166E-2,2.274912149E-1,2.327755392E-1
1.604430542E0,6.345546246E-2,2.042822689E-1,1.814148873E-1
1.624347542E0,1.054025665E-1,1.835683435E-1,1.152464300E-1
1.644264542E0,1.078843549E-1,1.334659755E-1,2.532212809E-2
1.664180542E0,2.849734388E-2,4.399428144E-2,-8.123206347E-2
1.684097542E0,-6.957380474E-2,-3.646850213E-2,-1.792965531E-1
1.704014542E0,-1.334690899E-1,-8.327818662E-2,-2.446648180E-1
1.723931542E0,-2.112639099E-1,-7.152743638E-2,-2.745975852E-1
1.743848167E0,-3.331710696E-1,-3.160097636E-3,-2.508239746E-1
1.763765167E0,-3.749951720E-1,1.372343451E-1,-1.928336024E-1
1.783682167E0,-3.064455688E-1,2.815373838E-1,-1.555122137E-1
1.803599167E0,-2.033766210E-1,4.017308354E-1,-1.324225366E-1
1.823516167E0,-9.358298033E-2,3.989386559E-1,-1.079688147E-1
1.843433167E0,-7.269144803E-2,1.787050366E-1,-6.052717194E-2
1.863350167E0,1.899708435E-2,-5.627343059E-2,-7.116820663E-2
1.883267167E0,1.872190535E-1,-2.475972772E-1,-1.180199236E-1
1.903184167E0,3.039198816E-1,-3.587987721E-1,-1.605838239E-1
1.923100167E0,3.345235884E-1,-3.577662110E-1,-2.098907083E-1
1.943017167E0,3.171323836E-1,-3.139920235E-1,-2.756710052E-1
1.962934167E0,2.702887654E-1,-3.060832620E-1,-3.329933584E-1
1.982851167E0,2.130672187E-1,-2.947188616E-1,-3.812080920E-1
2.002768167E0,1.442086548E-1,-2.929958403E-1,-4.381444752E-1
2.022685167E0,7.587431371E-2,-3.158504367E-1,-5.079315901E-1
2.042602167E0,4.062324017E-2,-2.963857055E-1,-5.598431230E-1
2.062519167E0,6.465644389E-2,-2.616160214E-1,-5.794284940E-1
2.082436167E0,1.419436336E-1,-2.696976960E-1,-5.450490713E-1
2.102353167E0,1.829262972E-1,-2.302637845E-1,-4.873207211E-1
2.122269167E0,1.937323362E-1,-1.586896032E-1,-4.294449091E-1
2.142186167E0,2.112476528E-1,-9.923350811E-2,-3.602435291E-1
2.162103167E0,2.073449343E-1,-3.365298733E-2,-2.941599488E-1
2.182020167E0,2.323826551E-1,1.783022285E-2,-2.173314840E-1
2.201937167E0,3.358182311E-1,4.176862538E-2,-1.264844090E-1
2.221854167E0,4.273000956E-1,2.672158368E-2,-3.716581687E-2
2.241771167E0,3.218058348E-1,-1.480587851E-2,6.225579977E-2
2.261688167E0,1.471961737E-1,-4.032296315E-2,2.186386883E-1
2.281605167E0,1.271962970E-1,7.290585339E-2,3.988597989E-1
2.301522167E0,1.082755104E-1,9.205914289E-2,4.726399183E-1
2.321439167E0,1.822048798E-3,9.079449624E-2,4.258364439E-1
2.341355167E0,-2.562193945E-2,1.480004340E-1,3.321921527E-1
2.361272167E0,-1.167637706E-1,2.276775986E-1,2.207554281E-1
2.381189167E0,-2.576168180E-1,3.068871796E-1,8.704737574E-2
2.401106167E0,-3.000791073E-1,3.082823455E-1,-1.884235814E-2
2.421023167E0,-2.845751345E-1,2.681915164E-1,-7.059887797E-2
2.440940167E0,-2.727008462E-1,2.257664800E-1,-7.478055358E-2
2.460857167E0,-2.636776865E-1,1.491696537E-1,-4.318072274E-2
2.480774167E0,-2.670635879E-1,2.853257954E-2,1.101412438E-2
2.500691167E0,-2.451626956E-1,-1.146912277E-1,7.643825561E-2
2.520608167E0,-1.966301203E-1,-2.476980835E-1,1.378885061E-1
2.540525167E0,-1.601475328E-1,-3.296378255E-1,1.645485461E-1
2.560442167E0,-1.247452050E-1,-3.027178943E-1,1.646977961E-1
2.580359167E0,-8.692652732E-2,-1.870586872E-1,1.476535201E-1
2.600275167E0,-7.308653742E-2,-1.799425483E-2,9.220230579E-2
2.620192167E0,-6.803091615E-2,1.878258735E-1,-5.522237625E-3
2.640109167E0,-5.618840922E-3,4.167478681E-1,-9.741717577E-2
2.660026167E0,-7.759170141E-3,5.310906172E-1,-6.640194356E-2
2.679943167E0,-1.590085030E-1,4.597505033E-1,7.818383723E-2
2.699860167E0,-1.399556547E-1,2.886276543E-1,1.948135793E-1
2.719777167E0,-1.703765690E-1,2.167304456E-1,2.730067670E-1
2.739694959E0,-3.103095293E-1,2.293091714E-1,2.886868119E-1
2.759611959E0,-4.863243997E-1,7.837688923E-2,2.423665524E-1
2.779528959E0,-5.755706429E-1,-7.655242831E-2,1.809045076E-1
2.799444959E0,-5.224825144E-1,1.406824030E-2,1.684370786E-1
2.819361959E0,-4.414567053E-1,4.701753333E-2,1.746864170E-1
2.839278958E0,-3.943541348E-1,-1.303872615E-1,1.367044598E-1
2.859195958E0,-2.719496787E-1,-3.456566334E-1,1.067025810E-1
2.879112958E0,-1.222801581E-1,-3.905415237E-1,1.175039783E-1
2.899029959E0,-3.373537213E-2,-3.503506482E-1,1.336294115E-1
2.918946959E0,-2.106915973E-2,-2.970395684E-1,1.104159206E-1
2.938863959E0,-7.377816364E-4,-2.299880534E-1,1.672938280E-2
2.958780958E0,3.114759549E-2,-1.536902189E-1,-7.363285124E-2
2.978697958E0,7.948385924E-2,-1.222972348E-1,-1.381038278E-1
2.998614958E0,1.066771001E-1,-1.398690194E-1,-2.180157453E-1
3.018531959E0,1.085919142E-1,-1.906195581E-1,-2.874134481E-1
3.038447958E0,1.012903824E-1,-2.601204515E-1,-3.091325462E-1
3.058364959E0,1.171601415E-1,-3.123952448E-1,-2.995142639E-1
3.078281959E0,1.285667717E-1,-3.271209896E-1,-2.976865172E-1
3.098198959E0,9.860153496E-2,-2.888397872E-1,-2.913408577E-1
3.118115958E0,1.110806689E-1,-1.855614781E-1,-3.205535412E-1
3.138032958E0,1.637203991E-1,-9.452148527E-2,-3.573787212E-1
3.157949958E0,2.029544562E-1,-1.224347483E-2,-3.584955335E-1
3.177866959E0,2.534893155E-1,4.698264599E-2,-3.276795149E-1
3.197783959E0,3.262935877E-1,6.966999173E-2,-3.017591238E-1
3.217700959E0,3.661949933E-1,3.752243146E-2,-2.843702435E-1
3.237617958E0,3.509759307E-1,-1.974775456E-3,-2.473196834E-1
3.257533959E0,3.593606353E-1,-6.707525998E-2,-1.691196859E-1
3.277450958E0,3.704549670E-1,-2.120032012E-1,-8.232898265E-2
3.297367958E0,4.288547933E-1,-3.490144610E-1,-1.046793908E-2
3.317284958E0,4.739227891E-1,-3.667722046E-1,5.411754921E-2
3.337201959E0,3.768215477E-1,-3.691029847E-1,1.449105591E-1
3.357118959E0,2.866247594E-1,-3.382351995E-1,2.865842879E-1
3.377035959E0,2.306852639E-1,-1.976950914E-1,3.867121637E-1
3.396952958E0,1.975124925E-1,-7.329949178E-3,4.010648429E-1
3.416869958E0,1.441143602E-1,2.331472039E-1,4.002809227E-1
3.436786958E0,9.729945660E-2,4.562698007E-1,4.001554847E-1
3.456703959E0,1.086470410E-1,6.363374591E-1,4.347058833E-1
3.476619958E0,1.422754377E-1,7.425997853E-1,4.760084450E-1
3.496536958E0,1.724533290E-1,7.624259591E-1,5.116678476E-1
3.516453959E0,2.075729966E-1,7.408164144E-1,5.362555385E-1
3.536370959E0,2.419254333E-1,6.816095114E-1,5.447170138E-1
3.556287958E0,2.407836467E-1,5.917184353E-1,5.555149913E-1
3.576204958E0,1.797374487E-1,5.104306340E-1,5.649141669E-1
3.596121958E0,1.378769130E-1,4.455069304E-1,5.849505663E-1
3.616038959E0,1.406284273E-1,4.020362496E-1,5.861958265E-1
3.635955959E0,1.602223217E-1,3.607976437E-1,5.743995309E-1
3.655872959E0,1.798487604E-1,2.989086211E-1,5.152648687E-1
3.675789958E0,1.666353792E-1,1.896910667E-1,3.894570470E-1
3.695705959E0,2.182295471E-1,1.202391982E-1,1.853965223E-1
3.715622958E0,2.548164725E-1,-4.656890407E-3,-4.766719043E-2
3.735539292E0,1.923031360E-1,-9.134104848E-2,-2.443471253E-1
3.755456292E0,8.476685733E-3,-1.408856511E-1,-3.852977455E-1
3.775373292E0,-1.908826977E-1,-1.689044982E-1,-4.833565950E-1
3.795290292E0,-2.862728834E-1,-3.854044676E-1,-5.722875595E-1
3.815207292E0,-3.291595876E-1,-6.460531354E-1,-6.024997234E-1
3.835124292E0,-3.291883767E-1,-9.421796203E-1,-6.199769974E-1
3.855041292E0,-2.174116224E-1,-1.161300421E0,-6.245620847E-1
3.874958292E0,-8.263515681E-2,-1.198369503E0,-6.540642381E-1
3.894874292E0,5.142452568E-2,-1.039307237E0,-7.093065977E-1
3.914791292E0,4.964414611E-2,-6.787820458E-1,-7.450412512E-1
3.934708292E0,-5.628940091E-2,-1.868212223E-1,-7.445980310E-1
3.954625292E0,-7.768754661E-2,5.638493598E-2,-7.572191954E-1
3.974542292E0,-1.928656697E-1,2.959396541E-1,-7.505148053E-1
3.994459292E0,-2.737434804E-1,4.975492060E-1,-7.310790420E-1
4.014376292E0,-2.912879586E-1,6.155074835E-1,-7.370986938E-1
4.034293292E0,-3.006277084E-1,6.494878531E-1,-7.941399813E-1
4.054210292E0,-2.875826657E-1,6.449248791E-1,-8.161109090E-1
4.074127292E0,-2.516360581E-1,6.166039705E-1,-7.968135476E-1
4.094044292E0,-2.079472691E-1,5.987806916E-1,-7.864379883E-1
4.113960292E0,-1.024631783E-1,5.843061805E-1,-7.529255748E-1
4.133877292E0,1.468952559E-2,5.080581307E-1,-7.088790536E-1
4.153794292E0,-1.099567860E-2,3.067166209E-1,-6.406050324E-1
4.173711292E0,-6.109530479E-2,2.481806129E-1,-5.647363067E-1
4.193628292E0,-9.373334795E-2,1.554844081E-1,-5.248681903E-1
4.213545292E0,8.839233965E-2,1.128330380E-1,-4.401167333E-1
4.233462292E0,2.079435289E-1,3.698532656E-2,-2.522895634E-1
4.253379292E0,2.762475014E-1,-7.521500811E-4,-9.965474904E-2
4.273296292E0,3.294252157E-1,4.409454018E-2,-7.622836623E-3
4.293213292E0,4.071423113E-1,-8.889851160E-3,1.014708355E-1
4.313129292E0,5.527666211E-1,-2.309879810E-1,2.535187006E-1
4.333046292E0,6.507067084E-1,-4.976308942E-1,3.536947966E-1
4.352963292E0,6.329881549E-1,-7.904046774E-1,3.382204771E-1
4.372880292E0,5.462213755E-1,-9.143567085E-1,3.009783626E-1
4.392797292E0,3.864993155E-1,-8.137273192E-1,2.293488532E-1
4.412714292E0,2.513018548E-1,-5.947800875E-1,1.544648111E-1
4.432631292E0,1.136495098E-1,-3.597460985E-1,9.552033246E-2
4.452548292E0,-2.226465195E-2,-1.546611190E-1,1.315225363E-1
4.472465292E0,-1.334127039E-1,7.967248559E-3,2.251505554E-1
4.492382292E0,-2.232170403E-1,1.094556078E-1,3.322739005E-1
4.512299292E0,-2.678769529E-1,1.463838220E-1,4.237449169E-1
4.532216292E0,-2.377889901E-1,1.400162429E-1,4.543687403E-1
4.552133292E0,-1.618845463E-1,1.555487663E-1,4.337857664E-1
4.572049292E0,-1.083625108E-1,2.539394796E-1,3.813342452E-1
4.591966292E0,-6.784929335E-2,4.391392767E-1,3.053136468E-1
4.611883292E0,4.696477205E-2,5.863507390E-1,2.337812781E-1
4.631800292E0,2.869731188E-1,5.506110787E-1,1.563701332E-1
4.651717292E0,4.920022488E-1,5.361897945E-1,1.498925984E-1
4.671634292E0,5.807336569E-1,4.795703888E-1,1.711150110E-1
4.691551292E0,5.538142920E-1,2.969572544E-1,2.150072157E-1
4.711468292E0,1.692522019E-1,1.244091019E-1,1.884315014E-1
4.731385292E0,-4.809010029E-1,5.860486254E-2,1.692251265E-1
4.751305959E0,-6.577434540E-1,-1.957110763E-1,1.750036031E-1
4.771222958E0,-6.548761129E-1,-3.219739497E-1,1.246620789E-1
4.791138959E0,-6.333182454E-1,-5.891509652E-1,2.877932601E-2
4.811055958E0,-6.861330271E-1,-8.318904638E-1,-5.432546511E-2
4.830972958E0,-7.261894941E-1,-9.383987188E-1,-1.413007379E-1
4.850889958E0,-7.026074529E-1,-1.067332268E0,-3.095355034E-1
4.870806959E0,-6.071654558E-1,-1.098278165E0,-4.945493937E-1
4.890723959E0,-4.265218973E-1,-1.025646210E0,-5.308781266E-1
4.910640959E0,-3.007315993E-1,-8.596018553E-1,-5.146832466E-1
4.930557958E0,-2.469915748E-1,-6.502926350E-1,-5.712298155E-1
4.950474958E0,-2.232447416E-1,-4.275601804E-1,-6.926846504E-1
4.970391958E0,-2.161522359E-1,-1.926291287E-1,-8.130683303E-1
4.990308959E0,-2.353657931E-1,-1.916476712E-2,-8.894461393E-1
5.010224958E0,-2.068577260E-1,3.956991807E-2,-9.129858017E-1
5.030141959E0,-1.505248994E-1,5.574955046E-2,-8.959194422E-1
5.050058959E0,-8.922477067E-2,8.800456673E-2,-8.337928653E-1
5.069975959E0,-5.065155402E-2,1.708234996E-1,-7.552038431E-1
5.089892958E0,-8.967325091E-2,3.181272149E-1,-6.704780459E-1
5.109809958E0,-1.747547537E-1,4.532946646E-1,-6.024456024E-1
5.129726958E0,-2.734679580E-1,5.115981102E-1,-6.179888248E-1
5.149643959E0,-2.663823068E-1,5.417225957E-1,-6.324353814E-1
5.169560959E0,-2.023130804E-1,5.731277466E-1,-5.858351588E-1
5.189477959E0,-1.172324270E-1,6.224701405E-1,-5.030975342E-1
5.209394958E0,-1.244520098E-1,6.341837049E-1,-4.118967950E-1
5.229311958E0,-9.248222411E-2,4.646345675E-1,-3.278997838E-1
5.249228959E0,-4.982965440E-2,3.935703933E-1,-2.322814614E-1
5.269144958E0,7.123040408E-2,1.058087200E-1,-1.652255207E-1
5.289061958E0,1.049618721E-1,-5.865290388E-2,-1.192059591E-1
5.308978959E0,7.722302526E-2,-1.344951689E-1,-6.078356132E-2
5.328895959E0,-1.267333329E-2,-6.580652297E-2,3.809107095E-2
5.348812959E0,-2.433453798E-1,1.127391160E-1,1.328820735E-1
5.368729958E0,-4.494664371E-1,1.722473651E-1,2.414675653E-1
5.388646958E0,-6.510003209E-1,3.988790810E-1,3.972313404E-1
5.408563958E0,-5.892858505E-1,2.739861012E-1,5.689077973E-1
5.428480959E0,-4.498769641E-1,1.067542881E-1,7.139135599E-1
5.448397959E0,-3.014693856E-1,-3.323632479E-2,7.888450623E-1
5.468314958E0,-3.024851084E-1,6.611769646E-2,8.369430900E-1
5.488231958E0,-4.206895828E-1,2.790912688E-1,8.665727973E-1
5.508148958E0,-5.206816196E-1,4.472908676E-1,8.794471025E-1
5.528064958E0,-5.877549648E-1,4.560184479E-1,8.818221092E-1
5.547981958E0,-5.951018929E-1,3.905516565E-1,8.640874624E-1
5.567898958E0,-5.417648554E-1,2.590314746E-1,8.449394107E-1
5.587815959E0,-4.814226031E-1,1.323628873E-1,8.194155097E-1
5.607732959E0,-3.100679517E-1,1.217477918E-1,7.691757083E-1
5.627649959E0,-1.885569990E-1,1.753307730E-1,7.360365987E-1
5.647566958E0,-1.225953922E-1,2.670932412E-1,6.749859452E-1
5.667483958E0,-6.886228453E-3,3.968632817E-1,5.440594554E-1
5.687400959E0,1.968364269E-1,4.575816691E-1,3.578679562E-1
5.707317959E0,2.966303825E-1,4.352071583E-1,1.612520665E-1
5.727234959E0,2.610963285E-1,3.859979212E-1,-2.812453918E-2
5.747148917E0,2.302462906E-1,3.010869026E-1,-1.453685910E-1
5.767065917E0,2.791639566E-1,-3.693718836E-2,-2.575244904E-1
5.786981917E0,3.234961629E-2,-1.401486099E-1,-3.410812020E-1
5.806898917E0,-1.902433336E-1,-1.022265851E-1,-3.641391993E-1
5.826815917E0,-2.868559361E-1,-2.036673725E-1,-3.197433054E-1
5.846732917E0,-2.379477620E-1,-3.941871524E-1,-2.839277387E-1
5.866649917E0,-1.324439794E-1,-5.559507608E-1,-2.376707941E-1
5.886566917E0,-8.574290574E-2,-6.404529810E-1,-2.355446368E-1
5.906483917E0,-7.407010347E-2,-6.436417699E-1,-3.089036047E-1
5.926400917E0,-7.189665735E-2,-5.286346674E-1,-4.479935467E-1
5.946317917E0,-6.630399823E-2,-3.601129949E-1,-6.157114506E-1
5.966234917E0,-4.771193117E-2,-2.173909396E-1,-7.577599287E-1
5.986151917E0,6.313745864E-3,-1.244053841E-1,-8.579544425E-1
6.006068917E0,5.460190028E-2,-3.899230808E-2,-9.339248538E-1
6.025985917E0,7.280020416E-2,2.976510674E-2,-9.813723564E-1
6.045901917E0,1.041466519E-1,8.831109107E-2,-9.847671390E-1
6.065818917E0,1.556245536E-1,1.479560137E-1,-9.590603709E-1
6.085735917E0,2.126141638E-1,1.867127270E-1,-9.002622366E-1
6.105652917E0,2.067984939E-1,2.302238941E-1,-8.258605599E-1
6.125569917E0,2.170365900E-1,2.838229835E-1,-7.299011350E-1
6.145486917E0,2.950477600E-1,2.685252130E-1,-6.102629304E-1
6.165403917E0,3.578701317E-1,2.103133053E-1,-4.884179831E-1
6.185320917E0,4.184610248E-1,1.215636879E-1,-3.467577994E-1
6.205237917E0,4.531263709E-1,4.453485459E-2,-2.143669575E-1
6.225154917E0,4.504258335E-1,7.909465581E-2,-1.038314924E-1
6.245071917E0,4.227142632E-1,8.290816844E-2,1.253368519E-2
6.264988917E0,4.509900212E-1,8.259172738E-2,1.109145209E-1
6.284904917E0,4.637349546E-1,1.430815309E-1,1.584123671E-1
6.304821917E0,3.177996278E-1,-2.675582841E-2,1.442427635E-1
6.324738917E0,1.612108648E-1,-2.580368817E-1,1.559186429E-1
6.344655917E0,1.166533455E-1,-3.731629252E-1,2.213848382E-1
6.364572917E0,1.093051583E-1,-3.485341668E-1,2.877822518E-1
6.384489917E0,7.727973163E-2,-1.700037271E-1,3.569793105E-1
6.404406917E0,2.075717039E-2,3.412342817E-2,4.340097308E-1
6.424323917E0,-2.463685349E-2,1.443069130E-1,5.092737079E-1
6.444240917E0,-5.142774060E-2,1.944179237E-1,5.748550892E-1
6.464157917E0,-7.449039817E-2,1.945286244E-1,6.277119517E-1
6.484074917E0,-1.029672101E-1,1.366440803E-1,6.726257205E-1
6.503991917E0,-1.274798214E-1,7.371570170E-2,6.841880083E-1
6.523908917E0,-1.389635652E-1,6.068932638E-2,6.730952859E-1
6.543825917E0,-1.510300040E-1,1.327661425E-1,6.485747695E-1
